Frequency,Number_of_Customers,Avg_Spend
1,1312,330.63
2,817,549.5
3,490,914.76
4,378,1182.2
5,287,1595.81
6,196,1832.23
7,157,2229.39
8,117,2429.34
9,80,2475.26
10,78,3047.6
11,62,3714.72
12,51,3674.63
13,38,3911.69
14,41,5368.86
15,28,4572.83
16,26,4215.03
17,19,5912.53
18,22,6605.23
19,16,5777.58
20,14,7511.65
21,10,10965.76
22,13,9376.6
23,9,10556.55
24,6,5821.03
26,7,24495.62
27,12,7870.81
29,9,13472.42
31,8,16104.68
